*  HeI bound-bound recombination spectrum.
* 
*   Frequency       Delta I_nu 
*     [GHz]      [J m^-2 s^-1 Hz^-1 sr^-1] 
    0.1000000  1.15375e-31
     0.100215  1.16527e-31
     0.100430  1.17669e-31
     0.100645  1.18788e-31
     0.100861  1.19869e-31
     0.101077  1.20895e-31
     0.101294  1.21857e-31
     0.101512  1.22738e-31
     0.101729  1.23524e-31
     0.101948  1.24210e-31
     0.102166  1.24781e-31
     0.102386  1.25222e-31
     0.102605  1.25534e-31
     0.102825  1.25709e-31
     0.103046  1.25739e-31
     0.103267  1.25629e-31
     0.103489  1.25379e-31
     0.103711  1.24995e-31
     0.103933  1.24474e-31
     0.104156  1.23829e-31
     0.104380  1.23068e-31
     0.104604  1.22199e-31
     0.104828  1.21234e-31
     0.105053  1.20186e-31
     0.105279  1.19073e-31
     0.105504  1.17905e-31
     0.105731  1.16700e-31
     0.105958  1.15475e-31
     0.106185  1.14238e-31
     0.106413  1.13009e-31
     0.106641  1.11808e-31
     0.106870  1.10648e-31
     0.107099  1.09545e-31
     0.107329  1.08513e-31
     0.107559  1.07569e-31
     0.107790  1.06722e-31
     0.108021  1.05986e-31
     0.108253  1.05371e-31
     0.108485  1.04884e-31
     0.108718  1.04537e-31
     0.108951  1.04334e-31
     0.109185  1.04272e-31
     0.109420  1.04359e-31
     0.109654  1.04593e-31
     0.109890  1.04973e-31
     0.110125  1.05495e-31
     0.110362  1.06159e-31
     0.110598  1.06948e-31
     0.110836  1.07857e-31
     0.111074  1.08875e-31
     0.111312  1.09989e-31
     0.111551  1.11188e-31
     0.111790  1.12453e-31
     0.112030  1.13766e-31
     0.112270  1.15114e-31
     0.112511  1.16480e-31
     0.112753  1.17849e-31
     0.112994  1.19196e-31
     0.113237  1.20510e-31
     0.113480  1.21785e-31
     0.113723  1.22996e-31
     0.113967  1.24137e-31
     0.114212  1.25194e-31
     0.114457  1.26161e-31
     0.114703  1.27024e-31
     0.114949  1.27788e-31
     0.115195  1.28455e-31
     0.115442  1.29015e-31
     0.115690  1.29478e-31
     0.115938  1.29847e-31
     0.116187  1.30126e-31
     0.116436  1.30324e-31
     0.116686  1.30451e-31
     0.116937  1.30518e-31
     0.117188  1.30538e-31
     0.117439  1.30526e-31
     0.117691  1.30491e-31
     0.117943  1.30444e-31
     0.118197  1.30407e-31
     0.118450  1.30394e-31
     0.118704  1.30419e-31
     0.118959  1.30495e-31
     0.119214  1.30636e-31
     0.119470  1.30857e-31
     0.119726  1.31172e-31
     0.119983  1.31592e-31
     0.120241  1.32129e-31
     0.120499  1.32795e-31
     0.120757  1.33593e-31
     0.121016  1.34535e-31
     0.121276  1.35622e-31
     0.121536  1.36866e-31
     0.121797  1.38266e-31
     0.122058  1.39824e-31
     0.122320  1.41540e-31
     0.122583  1.43415e-31
     0.122846  1.45450e-31
     0.123109  1.47626e-31
     0.123373  1.49944e-31
     0.123638  1.52405e-31
     0.123903  1.54984e-31
     0.124169  1.57677e-31
     0.124436  1.60482e-31
     0.124703  1.63381e-31
     0.124970  1.66352e-31
     0.125238  1.69369e-31
     0.125507  1.72426e-31
     0.125776  1.75513e-31
     0.126046  1.78595e-31
     0.126317  1.81659e-31
     0.126588  1.84712e-31
     0.126859  1.87730e-31
     0.127131  1.90679e-31
     0.127404  1.93558e-31
     0.127678  1.96354e-31
     0.127951  1.99069e-31
     0.128226  2.01669e-31
     0.128501  2.04169e-31
     0.128777  2.06579e-31
     0.129053  2.08863e-31
     0.129330  2.11053e-31
     0.129608  2.13139e-31
     0.129886  2.15127e-31
     0.130164  2.17029e-31
     0.130444  2.18842e-31
     0.130723  2.20587e-31
     0.131004  2.22268e-31
     0.131285  2.23878e-31
     0.131567  2.25449e-31
     0.131849  2.26993e-31
     0.132132  2.28496e-31
     0.132415  2.29998e-31
     0.132700  2.31491e-31
     0.132984  2.32979e-31
     0.133270  2.34499e-31
     0.133556  2.36034e-31
     0.133842  2.37578e-31
     0.134129  2.39177e-31
     0.134417  2.40809e-31
     0.134705  2.42461e-31
     0.134994  2.44175e-31
     0.135284  2.45926e-31
     0.135574  2.47699e-31
     0.135865  2.49532e-31
     0.136157  2.51398e-31
     0.136449  2.53267e-31
     0.136742  2.55188e-31
     0.137035  2.57122e-31
     0.137329  2.59035e-31
     0.137624  2.60955e-31
     0.137919  2.62876e-31
     0.138215  2.64742e-31
     0.138512  2.66560e-31
     0.138809  2.68357e-31
     0.139107  2.70065e-31
     0.139405  2.71654e-31
     0.139704  2.73179e-31
     0.140004  2.74590e-31
     0.140304  2.75826e-31
     0.140605  2.76936e-31
     0.140907  2.77900e-31
     0.141209  2.78686e-31
     0.141512  2.79286e-31
     0.141816  2.79716e-31
     0.142120  2.79969e-31
     0.142425  2.80035e-31
     0.142731  2.79934e-31
     0.143037  2.79673e-31
     0.143344  2.79270e-31
     0.143651  2.78752e-31
     0.143960  2.78129e-31
     0.144269  2.77423e-31
     0.144578  2.76668e-31
     0.144888  2.75932e-31
     0.145199  2.75197e-31
     0.145511  2.74490e-31
     0.145823  2.73860e-31
     0.146136  2.73379e-31
     0.146449  2.73014e-31
     0.146764  2.72763e-31
     0.147078  2.72658e-31
     0.147394  2.72758e-31
     0.147710  2.73042e-31
     0.148027  2.73454e-31
     0.148345  2.74009e-31
     0.148663  2.74714e-31
     0.148982  2.75600e-31
     0.149302  2.76572e-31
     0.149622  2.77625e-31
     0.149943  2.78736e-31
     0.150265  2.79934e-31
     0.150587  2.81187e-31
     0.150910  2.82457e-31
     0.151234  2.83741e-31
     0.151559  2.85014e-31
     0.151884  2.86299e-31
     0.152210  2.87599e-31
     0.152536  2.88879e-31
     0.152864  2.90134e-31
     0.153192  2.91353e-31
     0.153520  2.92554e-31
     0.153850  2.93736e-31
     0.154180  2.94878e-31
     0.154511  2.95984e-31
     0.154842  2.97041e-31
     0.155174  2.98047e-31
     0.155507  2.99006e-31
     0.155841  2.99910e-31
     0.156175  3.00754e-31
     0.156510  3.01541e-31
     0.156846  3.02269e-31
     0.157183  3.02933e-31
     0.157520  3.03542e-31
     0.157858  3.04104e-31
     0.158197  3.04612e-31
     0.158536  3.05091e-31
     0.158876  3.05548e-31
     0.159217  3.05984e-31
     0.159559  3.06420e-31
     0.159901  3.06882e-31
     0.160244  3.07388e-31
     0.160588  3.07945e-31
     0.160933  3.08579e-31
     0.161278  3.09309e-31
     0.161624  3.10148e-31
     0.161971  3.11104e-31
     0.162318  3.12184e-31
     0.162666  3.13404e-31
     0.163016  3.14773e-31
     0.163365  3.16277e-31
     0.163716  3.17889e-31
     0.164067  3.19622e-31
     0.164419  3.21455e-31
     0.164772  3.23378e-31
     0.165125  3.25336e-31
     0.165480  3.27316e-31
     0.165835  3.29320e-31
     0.166191  3.31312e-31
     0.166547  3.33255e-31
     0.166904  3.35127e-31
     0.167263  3.36925e-31
     0.167621  3.38648e-31
     0.167981  3.40275e-31
     0.168342  3.41790e-31
     0.168703  3.43191e-31
     0.169065  3.44480e-31
     0.169427  3.45653e-31
     0.169791  3.46726e-31
     0.170155  3.47653e-31
     0.170520  3.48474e-31
     0.170886  3.49191e-31
     0.171253  3.49781e-31
     0.171620  3.50265e-31
     0.171989  3.50659e-31
     0.172358  3.50941e-31
     0.172727  3.51134e-31
     0.173098  3.51270e-31
     0.173469  3.51315e-31
     0.173842  3.51287e-31
     0.174215  3.51240e-31
     0.174588  3.51152e-31
     0.174963  3.51030e-31
     0.175338  3.50929e-31
     0.175715  3.50859e-31
     0.176092  3.50816e-31
     0.176469  3.50849e-31
     0.176848  3.51011e-31
     0.177228  3.51283e-31
     0.177608  3.51693e-31
     0.177989  3.52319e-31
     0.178371  3.53161e-31
     0.178754  3.54228e-31
     0.179137  3.55579e-31
     0.179521  3.57208e-31
     0.179907  3.59133e-31
     0.180293  3.61373e-31
     0.180679  3.63920e-31
     0.181067  3.66763e-31
     0.181456  3.69921e-31
     0.181845  3.73348e-31
     0.182235  3.77014e-31
     0.182626  3.80878e-31
     0.183018  3.84912e-31
     0.183411  3.89093e-31
     0.183804  3.93343e-31
     0.184199  3.97608e-31
     0.184594  4.01881e-31
     0.184990  4.06121e-31
     0.185387  4.10263e-31
     0.185784  4.14236e-31
     0.186183  4.18063e-31
     0.186583  4.21744e-31
     0.186983  4.25198e-31
     0.187384  4.28442e-31
     0.187786  4.31440e-31
     0.188189  4.34213e-31
     0.188593  4.36773e-31
     0.188998  4.39099e-31
     0.189403  4.41166e-31
     0.189809  4.42963e-31
     0.190217  4.44558e-31
     0.190625  4.45936e-31
     0.191034  4.47052e-31
     0.191444  4.47895e-31
     0.191854  4.48521e-31
     0.192266  4.48965e-31
     0.192679  4.49152e-31
     0.193092  4.49109e-31
     0.193506  4.48869e-31
     0.193922  4.48433e-31
     0.194338  4.47824e-31
     0.194755  4.47052e-31
     0.195172  4.46123e-31
     0.195591  4.45073e-31
     0.196011  4.43950e-31
     0.196431  4.42763e-31
     0.196853  4.41525e-31
     0.197275  4.40328e-31
     0.197699  4.39227e-31
     0.198123  4.38219e-31
     0.198548  4.37335e-31
     0.198974  4.36682e-31
     0.199401  4.36333e-31
     0.199829  4.36293e-31
     0.200257  4.36568e-31
     0.200687  4.37243e-31
     0.201118  4.38401e-31
     0.201549  4.40033e-31
     0.201982  4.42105e-31
     0.202415  4.44645e-31
     0.202849  4.47695e-31
     0.203285  4.51204e-31
     0.203721  4.55180e-31
     0.204158  4.59506e-31
     0.204596  4.64157e-31
     0.205035  4.69125e-31
     0.205475  4.74357e-31
     0.205916  4.79730e-31
     0.206357  4.85141e-31
     0.206800  4.90644e-31
     0.207244  4.96151e-31
     0.207689  5.01527e-31
     0.208134  5.06791e-31
     0.208581  5.11885e-31
     0.209028  5.16765e-31
     0.209477  5.21394e-31
     0.209926  5.25756e-31
     0.210377  5.29779e-31
     0.210828  5.33496e-31
     0.211280  5.36909e-31
     0.211734  5.39962e-31
     0.212188  5.42656e-31
     0.212643  5.45003e-31
     0.213100  5.46987e-31
     0.213557  5.48598e-31
     0.214015  5.49833e-31
     0.214474  5.50691e-31
     0.214934  5.51194e-31
     0.215396  5.51340e-31
     0.215858  5.51101e-31
     0.216321  5.50516e-31
     0.216785  5.49583e-31
     0.217250  5.48372e-31
     0.217716  5.46816e-31
     0.218183  5.44957e-31
     0.218652  5.42874e-31
     0.219121  5.40584e-31
     0.219591  5.38089e-31
     0.220062  5.35401e-31
     0.220534  5.32609e-31
     0.221007  5.29812e-31
     0.221481  5.27026e-31
     0.221957  5.24256e-31
     0.222433  5.21580e-31
     0.222910  5.19162e-31
     0.223388  5.17009e-31
     0.223868  5.15148e-31
     0.224348  5.13636e-31
     0.224829  5.12589e-31
     0.225312  5.12087e-31
     0.225795  5.12171e-31
     0.226280  5.12790e-31
     0.226765  5.14014e-31
     0.227252  5.15892e-31
     0.227739  5.18452e-31
     0.228228  5.21701e-31
     0.228718  5.25504e-31
     0.229208  5.29852e-31
     0.229700  5.34778e-31
     0.230193  5.40215e-31
     0.230687  5.46099e-31
     0.231182  5.52312e-31
     0.231678  5.58807e-31
     0.232175  5.65549e-31
     0.232673  5.72469e-31
     0.233173  5.79519e-31
     0.233673  5.86586e-31
     0.234174  5.93644e-31
     0.234677  6.00715e-31
     0.235180  6.07698e-31
     0.235685  6.14489e-31
     0.236190  6.21110e-31
     0.236697  6.27551e-31
     0.237205  6.33718e-31
     0.237714  6.39604e-31
     0.238224  6.45185e-31
     0.238735  6.50402e-31
     0.239247  6.55258e-31
     0.239761  6.59690e-31
     0.240275  6.63683e-31
     0.240791  6.67193e-31
     0.241307  6.70210e-31
     0.241825  6.72736e-31
     0.242344  6.74746e-31
     0.242864  6.76267e-31
     0.243385  6.77291e-31
     0.243907  6.77772e-31
     0.244431  6.77729e-31
     0.244955  6.77179e-31
     0.245481  6.76186e-31
     0.246007  6.74743e-31
     0.246535  6.72867e-31
     0.247064  6.70663e-31
     0.247594  6.68111e-31
     0.248125  6.65285e-31
     0.248658  6.62213e-31
     0.249191  6.58968e-31
     0.249726  6.55706e-31
     0.250262  6.52436e-31
     0.250799  6.49187e-31
     0.251337  6.46133e-31
     0.251876  6.43337e-31
     0.252417  6.40870e-31
     0.252958  6.38849e-31
     0.253501  6.37249e-31
     0.254045  6.36223e-31
     0.254590  6.35931e-31
     0.255136  6.36260e-31
     0.255684  6.37278e-31
     0.256232  6.39079e-31
     0.256782  6.41605e-31
     0.257333  6.44878e-31
     0.257885  6.48951e-31
     0.258438  6.53682e-31
     0.258993  6.58990e-31
     0.259549  6.64987e-31
     0.260106  6.71525e-31
     0.260664  6.78479e-31
     0.261223  6.85884e-31
     0.261783  6.93659e-31
     0.262345  7.01639e-31
     0.262908  7.09860e-31
     0.263472  7.18370e-31
     0.264037  7.26928e-31
     0.264604  7.35521e-31
     0.265172  7.44284e-31
     0.265741  7.53044e-31
     0.266311  7.61712e-31
     0.266882  7.70393e-31
     0.267455  7.78973e-31
     0.268029  7.87440e-31
     0.268604  7.95771e-31
     0.269180  8.03902e-31
     0.269758  8.11830e-31
     0.270336  8.19489e-31
     0.270916  8.26876e-31
     0.271498  8.33864e-31
     0.272080  8.40401e-31
     0.272664  8.46590e-31
     0.273249  8.52354e-31
     0.273835  8.57548e-31
     0.274423  8.62185e-31
     0.275012  8.66325e-31
     0.275602  8.69921e-31
     0.276193  8.72795e-31
     0.276786  8.74978e-31
     0.277380  8.76668e-31
     0.277975  8.77834e-31
     0.278571  8.78313e-31
     0.279169  8.78107e-31
     0.279768  8.77392e-31
     0.280368  8.76247e-31
     0.280970  8.74661e-31
     0.281573  8.72669e-31
     0.282177  8.70220e-31
     0.282782  8.67553e-31
     0.283389  8.64885e-31
     0.283997  8.62026e-31
     0.284606  8.59137e-31
     0.285217  8.56395e-31
     0.285829  8.53882e-31
     0.286442  8.51724e-31
     0.287057  8.49960e-31
     0.287673  8.48692e-31
     0.288290  8.47897e-31
     0.288908  8.47670e-31
     0.289528  8.48179e-31
     0.290150  8.49444e-31
     0.290772  8.51463e-31
     0.291396  8.54184e-31
     0.292021  8.57505e-31
     0.292648  8.61447e-31
     0.293276  8.65963e-31
     0.293905  8.70960e-31
     0.294536  8.76515e-31
     0.295167  8.82412e-31
     0.295801  8.88597e-31
     0.296435  8.94989e-31
     0.297071  9.01465e-31
     0.297709  9.08026e-31
     0.298348  9.14644e-31
     0.298988  9.21259e-31
     0.299629  9.27848e-31
     0.300272  9.34390e-31
     0.300916  9.40857e-31
     0.301562  9.47196e-31
     0.302209  9.53418e-31
     0.302858  9.59636e-31
     0.303507  9.65792e-31
     0.304159  9.71731e-31
     0.304811  9.77600e-31
     0.305465  9.83448e-31
     0.306121  9.89314e-31
     0.306777  9.94954e-31
     0.307436  1.00035e-30
     0.308095  1.00563e-30
     0.308756  1.01091e-30
     0.309419  1.01617e-30
     0.310083  1.02113e-30
     0.310748  1.02564e-30
     0.311415  1.02982e-30
     0.312083  1.03378e-30
     0.312753  1.03747e-30
     0.313424  1.04070e-30
     0.314096  1.04333e-30
     0.314770  1.04544e-30
     0.315445  1.04702e-30
     0.316122  1.04789e-30
     0.316800  1.04814e-30
     0.317480  1.04785e-30
     0.318161  1.04693e-30
     0.318844  1.04533e-30
     0.319528  1.04315e-30
     0.320214  1.04043e-30
     0.320901  1.03719e-30
     0.321589  1.03349e-30
     0.322279  1.02939e-30
     0.322971  1.02500e-30
     0.323664  1.02060e-30
     0.324358  1.01617e-30
     0.325054  1.01181e-30
     0.325752  1.00751e-30
     0.326451  1.00348e-30
     0.327151  9.99862e-31
     0.327853  9.96769e-31
     0.328556  9.94375e-31
     0.329261  9.92747e-31
     0.329968  9.91779e-31
     0.330676  9.91539e-31
     0.331385  9.92224e-31
     0.332096  9.93728e-31
     0.332809  9.96063e-31
     0.333523  9.99280e-31
     0.334239  1.00330e-30
     0.334956  1.00794e-30
     0.335674  1.01319e-30
     0.336395  1.01915e-30
     0.337116  1.02568e-30
     0.337840  1.03261e-30
     0.338565  1.03985e-30
     0.339291  1.04749e-30
     0.340019  1.05553e-30
     0.340749  1.06394e-30
     0.341480  1.07258e-30
     0.342212  1.08118e-30
     0.342947  1.08996e-30
     0.343682  1.09908e-30
     0.344420  1.10834e-30
     0.345159  1.11775e-30
     0.345899  1.12697e-30
     0.346642  1.13612e-30
     0.347385  1.14521e-30
     0.348131  1.15424e-30
     0.348878  1.16310e-30
     0.349626  1.17152e-30
     0.350376  1.17946e-30
     0.351128  1.18701e-30
     0.351882  1.19417e-30
     0.352636  1.20091e-30
     0.353393  1.20693e-30
     0.354151  1.21219e-30
     0.354911  1.21682e-30
     0.355673  1.22069e-30
     0.356436  1.22379e-30
     0.357201  1.22604e-30
     0.357967  1.22743e-30
     0.358735  1.22816e-30
     0.359505  1.22811e-30
     0.360276  1.22704e-30
     0.361049  1.22508e-30
     0.361824  1.22225e-30
     0.362600  1.21847e-30
     0.363378  1.21408e-30
     0.364158  1.20909e-30
     0.364939  1.20316e-30
     0.365722  1.19668e-30
     0.366507  1.18967e-30
     0.367293  1.18204e-30
     0.368081  1.17405e-30
     0.368871  1.16600e-30
     0.369663  1.15770e-30
     0.370456  1.14943e-30
     0.371251  1.14157e-30
     0.372047  1.13391e-30
     0.372845  1.12660e-30
     0.373645  1.12022e-30
     0.374447  1.11469e-30
     0.375251  1.10998e-30
     0.376056  1.10667e-30
     0.376863  1.10463e-30
     0.377671  1.10382e-30
     0.378481  1.10463e-30
     0.379294  1.10699e-30
     0.380107  1.11078e-30
     0.380923  1.11610e-30
     0.381740  1.12306e-30
     0.382559  1.13151e-30
     0.383380  1.14129e-30
     0.384203  1.15214e-30
     0.385027  1.16394e-30
     0.385853  1.17675e-30
     0.386681  1.19049e-30
     0.387511  1.20494e-30
     0.388342  1.21960e-30
     0.389175  1.23433e-30
     0.390010  1.24954e-30
     0.390847  1.26496e-30
     0.391686  1.28024e-30
     0.392526  1.29509e-30
     0.393368  1.30986e-30
     0.394213  1.32461e-30
     0.395058  1.33898e-30
     0.395906  1.35270e-30
     0.396755  1.36597e-30
     0.397607  1.37897e-30
     0.398460  1.39143e-30
     0.399315  1.40321e-30
     0.400171  1.41421e-30
     0.401030  1.42462e-30
     0.401891  1.43465e-30
     0.402753  1.44383e-30
     0.403617  1.45201e-30
     0.404483  1.45928e-30
     0.405351  1.46588e-30
     0.406221  1.47153e-30
     0.407092  1.47626e-30
     0.407966  1.48013e-30
     0.408841  1.48276e-30
     0.409718  1.48432e-30
     0.410597  1.48504e-30
     0.411478  1.48458e-30
     0.412361  1.48302e-30
     0.413246  1.48048e-30
     0.414133  1.47684e-30
     0.415021  1.47221e-30
     0.415912  1.46651e-30
     0.416804  1.45982e-30
     0.417698  1.45231e-30
     0.418595  1.44408e-30
     0.419493  1.43504e-30
     0.420393  1.42538e-30
     0.421295  1.41530e-30
     0.422199  1.40482e-30
     0.423105  1.39418e-30
     0.424012  1.38362e-30
     0.424922  1.37316e-30
     0.425834  1.36293e-30
     0.426748  1.35330e-30
     0.427663  1.34454e-30
     0.428581  1.33683e-30
     0.429500  1.33011e-30
     0.430422  1.32458e-30
     0.431345  1.32055e-30
     0.432271  1.31826e-30
     0.433198  1.31794e-30
     0.434128  1.31940e-30
     0.435059  1.32254e-30
     0.435993  1.32761e-30
     0.436928  1.33475e-30
     0.437866  1.34393e-30
     0.438805  1.35499e-30
     0.439747  1.36758e-30
     0.440690  1.38178e-30
     0.441636  1.39723e-30
     0.442583  1.41415e-30
     0.443533  1.43223e-30
     0.444485  1.45102e-30
     0.445438  1.47035e-30
     0.446394  1.49021e-30
     0.447352  1.51041e-30
     0.448312  1.53066e-30
     0.449274  1.55056e-30
     0.450238  1.57026e-30
     0.451204  1.59005e-30
     0.452172  1.60933e-30
     0.453142  1.62825e-30
     0.454114  1.64641e-30
     0.455089  1.66383e-30
     0.456065  1.68080e-30
     0.457044  1.69681e-30
     0.458024  1.71183e-30
     0.459007  1.72627e-30
     0.459992  1.74006e-30
     0.460979  1.75297e-30
     0.461968  1.76515e-30
     0.462959  1.77607e-30
     0.463952  1.78551e-30
     0.464948  1.79417e-30
     0.465945  1.80193e-30
     0.466945  1.80857e-30
     0.467947  1.81470e-30
     0.468951  1.81972e-30
     0.469957  1.82305e-30
     0.470966  1.82543e-30
     0.471976  1.82703e-30
     0.472989  1.82744e-30
     0.474004  1.82692e-30
     0.475021  1.82568e-30
     0.476040  1.82331e-30
     0.477061  1.81983e-30
     0.478085  1.81569e-30
     0.479111  1.81091e-30
     0.480139  1.80516e-30
     0.481169  1.79842e-30
     0.482201  1.79101e-30
     0.483236  1.78316e-30
