*  HeII bound-bound recombination spectrum.
* 
*   Frequency       Delta I_nu 
*     [GHz]      [J m^-2 s^-1 Hz^-1 sr^-1] 
    0.1000000  3.30464e-30
     0.100215  3.31200e-30
     0.100430  3.31936e-30
     0.100645  3.32673e-30
     0.100861  3.33409e-30
     0.101077  3.34147e-30
     0.101294  3.34889e-30
     0.101512  3.35633e-30
     0.101729  3.36372e-30
     0.101948  3.37109e-30
     0.102166  3.37853e-30
     0.102386  3.38593e-30
     0.102605  3.39316e-30
     0.102825  3.40067e-30
     0.103046  3.40830e-30
     0.103267  3.41570e-30
     0.103489  3.42310e-30
     0.103711  3.43055e-30
     0.103933  3.43797e-30
     0.104156  3.44543e-30
     0.104380  3.45288e-30
     0.104604  3.46033e-30
     0.104828  3.46781e-30
     0.105053  3.47524e-30
     0.105279  3.48298e-30
     0.105504  3.49130e-30
     0.105731  3.49918e-30
     0.105958  3.50667e-30
     0.106185  3.51433e-30
     0.106413  3.52198e-30
     0.106641  3.52960e-30
     0.106870  3.53723e-30
     0.107099  3.54489e-30
     0.107329  3.55258e-30
     0.107559  3.56028e-30
     0.107790  3.56796e-30
     0.108021  3.57568e-30
     0.108253  3.58343e-30
     0.108485  3.59111e-30
     0.108718  3.59882e-30
     0.108951  3.60657e-30
     0.109185  3.61434e-30
     0.109420  3.62208e-30
     0.109654  3.62983e-30
     0.109890  3.63759e-30
     0.110125  3.64538e-30
     0.110362  3.65319e-30
     0.110598  3.66091e-30
     0.110836  3.66847e-30
     0.111074  3.67634e-30
     0.111312  3.68438e-30
     0.111551  3.69218e-30
     0.111790  3.69993e-30
     0.112030  3.70779e-30
     0.112270  3.71573e-30
     0.112511  3.72359e-30
     0.112753  3.73135e-30
     0.112994  3.73911e-30
     0.113237  3.74696e-30
     0.113480  3.75482e-30
     0.113723  3.76263e-30
     0.113967  3.77044e-30
     0.114212  3.77833e-30
     0.114457  3.78622e-30
     0.114703  3.79405e-30
     0.114949  3.80190e-30
     0.115195  3.80982e-30
     0.115442  3.81773e-30
     0.115690  3.82548e-30
     0.115938  3.83387e-30
     0.116187  3.84275e-30
     0.116436  3.85086e-30
     0.116686  3.85880e-30
     0.116937  3.86694e-30
     0.117188  3.87504e-30
     0.117439  3.88312e-30
     0.117691  3.89122e-30
     0.117943  3.89934e-30
     0.118197  3.90747e-30
     0.118450  3.91561e-30
     0.118704  3.92376e-30
     0.118959  3.93188e-30
     0.119214  3.94009e-30
     0.119470  3.94834e-30
     0.119726  3.95644e-30
     0.119983  3.96483e-30
     0.120241  3.97327e-30
     0.120499  3.98124e-30
     0.120757  3.98930e-30
     0.121016  3.99758e-30
     0.121276  4.00584e-30
     0.121536  4.01401e-30
     0.121797  4.02219e-30
     0.122058  4.03041e-30
     0.122320  4.03858e-30
     0.122583  4.04675e-30
     0.122846  4.05494e-30
     0.123109  4.06313e-30
     0.123373  4.07133e-30
     0.123638  4.07951e-30
     0.123903  4.08769e-30
     0.124169  4.09588e-30
     0.124436  4.10409e-30
     0.124703  4.11229e-30
     0.124970  4.12052e-30
     0.125238  4.12878e-30
     0.125507  4.13703e-30
     0.125776  4.14528e-30
     0.126046  4.15358e-30
     0.126317  4.16192e-30
     0.126588  4.17023e-30
     0.126859  4.17854e-30
     0.127131  4.18697e-30
     0.127404  4.19546e-30
     0.127678  4.20371e-30
     0.127951  4.21248e-30
     0.128226  4.22195e-30
     0.128501  4.23062e-30
     0.128777  4.23907e-30
     0.129053  4.24784e-30
     0.129330  4.25649e-30
     0.129608  4.26504e-30
     0.129886  4.27371e-30
     0.130164  4.28259e-30
     0.130444  4.29138e-30
     0.130723  4.29991e-30
     0.131004  4.30832e-30
     0.131285  4.31692e-30
     0.131567  4.32559e-30
     0.131849  4.33420e-30
     0.132132  4.34280e-30
     0.132415  4.35139e-30
     0.132700  4.35996e-30
     0.132984  4.36854e-30
     0.133270  4.37715e-30
     0.133556  4.38574e-30
     0.133842  4.39427e-30
     0.134129  4.40278e-30
     0.134417  4.41131e-30
     0.134705  4.41983e-30
     0.134994  4.42835e-30
     0.135284  4.43687e-30
     0.135574  4.44541e-30
     0.135865  4.45405e-30
     0.136157  4.46272e-30
     0.136449  4.47134e-30
     0.136742  4.47991e-30
     0.137035  4.48852e-30
     0.137329  4.49715e-30
     0.137624  4.50576e-30
     0.137919  4.51440e-30
     0.138215  4.52318e-30
     0.138512  4.53209e-30
     0.138809  4.54092e-30
     0.139107  4.54971e-30
     0.139405  4.55854e-30
     0.139704  4.56738e-30
     0.140004  4.57627e-30
     0.140304  4.58522e-30
     0.140605  4.59417e-30
     0.140907  4.60303e-30
     0.141209  4.61206e-30
     0.141512  4.62142e-30
     0.141816  4.63040e-30
     0.142120  4.63970e-30
     0.142425  4.64969e-30
     0.142731  4.65902e-30
     0.143037  4.66801e-30
     0.143344  4.67718e-30
     0.143651  4.68634e-30
     0.143960  4.69545e-30
     0.144269  4.70453e-30
     0.144578  4.71359e-30
     0.144888  4.72271e-30
     0.145199  4.73181e-30
     0.145511  4.74081e-30
     0.145823  4.74976e-30
     0.146136  4.75872e-30
     0.146449  4.76768e-30
     0.146764  4.77660e-30
     0.147078  4.78546e-30
     0.147394  4.79429e-30
     0.147710  4.80314e-30
     0.148027  4.81203e-30
     0.148345  4.82091e-30
     0.148663  4.82976e-30
     0.148982  4.83874e-30
     0.149302  4.84777e-30
     0.149622  4.85669e-30
     0.149943  4.86567e-30
     0.150265  4.87469e-30
     0.150587  4.88369e-30
     0.150910  4.89272e-30
     0.151234  4.90180e-30
     0.151559  4.91094e-30
     0.151884  4.92012e-30
     0.152210  4.92930e-30
     0.152536  4.93852e-30
     0.152864  4.94780e-30
     0.153192  4.95707e-30
     0.153520  4.96652e-30
     0.153850  4.97625e-30
     0.154180  4.98581e-30
     0.154511  4.99525e-30
     0.154842  5.00479e-30
     0.155174  5.01447e-30
     0.155507  5.02394e-30
     0.155841  5.03327e-30
     0.156175  5.04287e-30
     0.156510  5.05251e-30
     0.156846  5.06207e-30
     0.157183  5.07165e-30
     0.157520  5.08132e-30
     0.157858  5.09073e-30
     0.158197  5.10012e-30
     0.158536  5.11075e-30
     0.158876  5.12121e-30
     0.159217  5.13061e-30
     0.159559  5.14005e-30
     0.159901  5.14952e-30
     0.160244  5.15897e-30
     0.160588  5.16853e-30
     0.160933  5.17795e-30
     0.161278  5.18723e-30
     0.161624  5.19653e-30
     0.161971  5.20578e-30
     0.162318  5.21499e-30
     0.162666  5.22422e-30
     0.163016  5.23342e-30
     0.163365  5.24261e-30
     0.163716  5.25179e-30
     0.164067  5.26093e-30
     0.164419  5.27018e-30
     0.164772  5.27951e-30
     0.165125  5.28876e-30
     0.165480  5.29803e-30
     0.165835  5.30740e-30
     0.166191  5.31689e-30
     0.166547  5.32638e-30
     0.166904  5.33582e-30
     0.167263  5.34536e-30
     0.167621  5.35531e-30
     0.167981  5.36523e-30
     0.168342  5.37494e-30
     0.168703  5.38474e-30
     0.169065  5.39468e-30
     0.169427  5.40470e-30
     0.169791  5.41466e-30
     0.170155  5.42448e-30
     0.170520  5.43440e-30
     0.170886  5.44463e-30
     0.171253  5.45489e-30
     0.171620  5.46510e-30
     0.171989  5.47532e-30
     0.172358  5.48559e-30
     0.172727  5.49582e-30
     0.173098  5.50606e-30
     0.173469  5.51644e-30
     0.173842  5.52672e-30
     0.174215  5.53685e-30
     0.174588  5.54697e-30
     0.174963  5.55701e-30
     0.175338  5.56700e-30
     0.175715  5.57705e-30
     0.176092  5.58703e-30
     0.176469  5.59666e-30
     0.176848  5.60646e-30
     0.177228  5.61757e-30
     0.177608  5.62812e-30
     0.177989  5.63760e-30
     0.178371  5.64732e-30
     0.178754  5.65704e-30
     0.179137  5.66658e-30
     0.179521  5.67609e-30
     0.179907  5.68560e-30
     0.180293  5.69511e-30
     0.180679  5.70463e-30
     0.181067  5.71410e-30
     0.181456  5.72353e-30
     0.181845  5.73300e-30
     0.182235  5.74252e-30
     0.182626  5.75193e-30
     0.183018  5.76149e-30
     0.183411  5.77156e-30
     0.183804  5.78150e-30
     0.184199  5.79126e-30
     0.184594  5.80119e-30
     0.184990  5.81118e-30
     0.185387  5.82125e-30
     0.185784  5.83144e-30
     0.186183  5.84168e-30
     0.186583  5.85206e-30
     0.186983  5.86244e-30
     0.187384  5.87265e-30
     0.187786  5.88331e-30
     0.188189  5.89436e-30
     0.188593  5.90520e-30
     0.188998  5.91605e-30
     0.189403  5.92702e-30
     0.189809  5.93802e-30
     0.190217  5.94904e-30
     0.190625  5.96007e-30
     0.191034  5.97109e-30
     0.191444  5.98208e-30
     0.191854  5.99320e-30
     0.192266  6.00436e-30
     0.192679  6.01529e-30
     0.193092  6.02614e-30
     0.193506  6.03696e-30
     0.193922  6.04768e-30
     0.194338  6.05831e-30
     0.194755  6.06885e-30
     0.195172  6.07931e-30
     0.195591  6.08962e-30
     0.196011  6.09985e-30
     0.196431  6.11001e-30
     0.196853  6.12004e-30
     0.197275  6.12997e-30
     0.197699  6.13965e-30
     0.198123  6.14916e-30
     0.198548  6.15994e-30
     0.198974  6.17099e-30
     0.199401  6.18054e-30
     0.199829  6.19003e-30
     0.200257  6.19965e-30
     0.200687  6.20918e-30
     0.201118  6.21925e-30
     0.201549  6.22927e-30
     0.201982  6.23887e-30
     0.202415  6.24858e-30
     0.202849  6.25834e-30
     0.203285  6.26821e-30
     0.203721  6.27838e-30
     0.204158  6.28856e-30
     0.204596  6.29877e-30
     0.205035  6.30916e-30
     0.205475  6.31971e-30
     0.205916  6.33013e-30
     0.206357  6.34051e-30
     0.206800  6.35148e-30
     0.207244  6.36270e-30
     0.207689  6.37389e-30
     0.208134  6.38523e-30
     0.208581  6.39671e-30
     0.209028  6.40828e-30
     0.209477  6.41993e-30
     0.209926  6.43168e-30
     0.210377  6.44352e-30
     0.210828  6.45540e-30
     0.211280  6.46733e-30
     0.211734  6.47925e-30
     0.212188  6.49117e-30
     0.212643  6.50314e-30
     0.213100  6.51504e-30
     0.213557  6.52684e-30
     0.214015  6.53860e-30
     0.214474  6.55033e-30
     0.214934  6.56196e-30
     0.215396  6.57346e-30
     0.215858  6.58494e-30
     0.216321  6.59629e-30
     0.216785  6.60740e-30
     0.217250  6.61839e-30
     0.217716  6.62922e-30
     0.218183  6.63986e-30
     0.218652  6.65041e-30
     0.219121  6.66081e-30
     0.219591  6.67103e-30
     0.220062  6.68113e-30
     0.220534  6.69095e-30
     0.221007  6.70092e-30
     0.221481  6.71136e-30
     0.221957  6.72126e-30
     0.222433  6.73077e-30
     0.222910  6.74034e-30
     0.223388  6.74967e-30
     0.223868  6.76010e-30
     0.224348  6.77150e-30
     0.224829  6.78148e-30
     0.225312  6.79106e-30
     0.225795  6.80100e-30
     0.226280  6.81094e-30
     0.226765  6.82102e-30
     0.227252  6.83132e-30
     0.227739  6.84173e-30
     0.228228  6.85204e-30
     0.228718  6.86254e-30
     0.229208  6.87351e-30
     0.229700  6.88471e-30
     0.230193  6.89612e-30
     0.230687  6.90771e-30
     0.231182  6.91938e-30
     0.231678  6.93138e-30
     0.232175  6.94371e-30
     0.232673  6.95608e-30
     0.233173  6.96854e-30
     0.233673  6.98121e-30
     0.234174  6.99409e-30
     0.234677  7.00702e-30
     0.235180  7.01998e-30
     0.235685  7.03304e-30
     0.236190  7.04614e-30
     0.236697  7.05924e-30
     0.237205  7.07230e-30
     0.237714  7.08535e-30
     0.238224  7.09838e-30
     0.238735  7.11131e-30
     0.239247  7.12410e-30
     0.239761  7.13680e-30
     0.240275  7.14931e-30
     0.240791  7.16162e-30
     0.241307  7.17415e-30
     0.241825  7.18642e-30
     0.242344  7.19814e-30
     0.242864  7.20973e-30
     0.243385  7.22105e-30
     0.243907  7.23223e-30
     0.244431  7.24366e-30
     0.244955  7.25462e-30
     0.245481  7.26500e-30
     0.246007  7.27521e-30
     0.246535  7.28528e-30
     0.247064  7.29520e-30
     0.247594  7.30500e-30
     0.248125  7.31465e-30
     0.248658  7.32415e-30
     0.249191  7.33356e-30
     0.249726  7.34300e-30
     0.250262  7.35247e-30
     0.250799  7.36184e-30
     0.251337  7.37105e-30
     0.251876  7.38058e-30
     0.252417  7.38992e-30
     0.252958  7.39900e-30
     0.253501  7.41030e-30
     0.254045  7.42206e-30
     0.254590  7.43228e-30
     0.255136  7.44278e-30
     0.255684  7.45375e-30
     0.256232  7.46489e-30
     0.256782  7.47632e-30
     0.257333  7.48804e-30
     0.257885  7.50006e-30
     0.258438  7.51236e-30
     0.258993  7.52497e-30
     0.259549  7.53787e-30
     0.260106  7.55104e-30
     0.260664  7.56444e-30
     0.261223  7.57818e-30
     0.261783  7.59224e-30
     0.262345  7.60640e-30
     0.262908  7.62064e-30
     0.263472  7.63511e-30
     0.264037  7.64999e-30
     0.264604  7.66480e-30
     0.265172  7.67946e-30
     0.265741  7.69419e-30
     0.266311  7.70887e-30
     0.266882  7.72349e-30
     0.267455  7.73802e-30
     0.268029  7.75234e-30
     0.268604  7.76664e-30
     0.269180  7.78085e-30
     0.269758  7.79454e-30
     0.270336  7.80833e-30
     0.270916  7.82216e-30
     0.271498  7.83515e-30
     0.272080  7.84773e-30
     0.272664  7.86001e-30
     0.273249  7.87177e-30
     0.273835  7.88327e-30
     0.274423  7.89452e-30
     0.275012  7.90540e-30
     0.275602  7.91587e-30
     0.276193  7.92602e-30
     0.276786  7.93592e-30
     0.277380  7.94553e-30
     0.277975  7.95487e-30
     0.278571  7.96399e-30
     0.279169  7.97294e-30
     0.279768  7.98171e-30
     0.280368  7.99040e-30
     0.280970  7.99907e-30
     0.281573  8.00735e-30
     0.282177  8.01567e-30
     0.282782  8.02447e-30
     0.283389  8.03343e-30
     0.283997  8.04261e-30
     0.284606  8.05205e-30
     0.285217  8.06151e-30
     0.285829  8.07130e-30
     0.286442  8.08153e-30
     0.287057  8.09203e-30
     0.287673  8.10299e-30
     0.288290  8.11425e-30
     0.288908  8.12612e-30
     0.289528  8.14042e-30
     0.290150  8.15508e-30
     0.290772  8.16829e-30
     0.291396  8.18199e-30
     0.292021  8.19626e-30
     0.292648  8.21083e-30
     0.293276  8.22595e-30
     0.293905  8.24144e-30
     0.294536  8.25721e-30
     0.295167  8.27331e-30
     0.295801  8.28964e-30
     0.296435  8.30621e-30
     0.297071  8.32300e-30
     0.297709  8.33975e-30
     0.298348  8.35661e-30
     0.298988  8.37363e-30
     0.299629  8.39047e-30
     0.300272  8.40765e-30
     0.300916  8.42502e-30
     0.301562  8.44160e-30
     0.302209  8.45778e-30
     0.302858  8.47375e-30
     0.303507  8.48932e-30
     0.304159  8.50455e-30
     0.304811  8.51937e-30
     0.305465  8.53367e-30
     0.306121  8.54748e-30
     0.306777  8.56078e-30
     0.307436  8.57351e-30
     0.308095  8.58562e-30
     0.308756  8.59734e-30
     0.309419  8.60863e-30
     0.310083  8.61924e-30
     0.310748  8.62930e-30
     0.311415  8.63894e-30
     0.312083  8.64816e-30
     0.312753  8.65694e-30
     0.313424  8.66541e-30
     0.314096  8.67358e-30
     0.314770  8.68108e-30
     0.315445  8.68850e-30
     0.316122  8.69613e-30
     0.316800  8.70355e-30
     0.317480  8.71119e-30
     0.318161  8.71904e-30
     0.318844  8.72670e-30
     0.319528  8.73448e-30
     0.320214  8.74257e-30
     0.320901  8.75097e-30
     0.321589  8.75973e-30
     0.322279  8.76890e-30
     0.322971  8.77852e-30
     0.323664  8.78866e-30
     0.324358  8.79940e-30
     0.325054  8.81068e-30
     0.325752  8.82243e-30
     0.326451  8.83488e-30
     0.327151  8.84810e-30
     0.327853  8.86189e-30
     0.328556  8.87628e-30
     0.329261  8.89137e-30
     0.329968  8.90704e-30
     0.330676  8.92282e-30
     0.331385  8.94066e-30
     0.332096  8.96073e-30
     0.332809  8.97925e-30
     0.333523  8.99708e-30
     0.334239  9.01589e-30
     0.334956  9.03569e-30
     0.335674  9.05535e-30
     0.336395  9.07483e-30
     0.337116  9.09484e-30
     0.337840  9.11468e-30
     0.338565  9.13427e-30
     0.339291  9.15382e-30
     0.340019  9.17316e-30
     0.340749  9.19227e-30
     0.341480  9.21110e-30
     0.342212  9.22948e-30
     0.342947  9.24743e-30
     0.343682  9.26492e-30
     0.344420  9.28175e-30
     0.345159  9.29797e-30
     0.345899  9.31359e-30
     0.346642  9.32855e-30
     0.347385  9.34283e-30
     0.348131  9.35630e-30
     0.348878  9.36903e-30
     0.349626  9.38141e-30
     0.350376  9.39297e-30
     0.351128  9.40355e-30
     0.351882  9.41363e-30
     0.352636  9.42262e-30
     0.353393  9.43070e-30
     0.354151  9.43885e-30
     0.354911  9.44661e-30
     0.355673  9.45382e-30
     0.356436  9.46064e-30
     0.357201  9.46692e-30
     0.357967  9.47296e-30
     0.358735  9.47905e-30
     0.359505  9.48498e-30
     0.360276  9.49087e-30
     0.361049  9.49686e-30
     0.361824  9.50294e-30
     0.362600  9.50923e-30
     0.363378  9.51587e-30
     0.364158  9.52295e-30
     0.364939  9.53046e-30
     0.365722  9.53846e-30
     0.366507  9.54703e-30
     0.367293  9.55621e-30
     0.368081  9.56624e-30
     0.368871  9.57720e-30
     0.369663  9.58873e-30
     0.370456  9.60103e-30
     0.371251  9.61428e-30
     0.372047  9.62845e-30
     0.372845  9.64347e-30
     0.373645  9.65921e-30
     0.374447  9.67575e-30
     0.375251  9.69385e-30
     0.376056  9.71287e-30
     0.376863  9.73195e-30
     0.377671  9.75175e-30
     0.378481  9.77227e-30
     0.379294  9.79340e-30
     0.380107  9.81525e-30
     0.380923  9.83703e-30
     0.381740  9.85982e-30
     0.382559  9.88564e-30
     0.383380  9.91034e-30
     0.384203  9.93325e-30
     0.385027  9.95674e-30
     0.385853  9.98010e-30
     0.386681  1.00033e-29
     0.387511  1.00266e-29
     0.388342  1.00494e-29
     0.389175  1.00716e-29
     0.390010  1.00932e-29
     0.390847  1.01142e-29
     0.391686  1.01345e-29
     0.392526  1.01539e-29
     0.393368  1.01724e-29
     0.394213  1.01900e-29
     0.395058  1.02069e-29
     0.395906  1.02229e-29
     0.396755  1.02378e-29
     0.397607  1.02513e-29
     0.398460  1.02633e-29
     0.399315  1.02749e-29
     0.400171  1.02856e-29
     0.401030  1.02952e-29
     0.401891  1.03038e-29
     0.402753  1.03115e-29
     0.403617  1.03182e-29
     0.404483  1.03240e-29
     0.405351  1.03294e-29
     0.406221  1.03342e-29
     0.407092  1.03380e-29
     0.407966  1.03413e-29
     0.408841  1.03444e-29
     0.409718  1.03470e-29
     0.410597  1.03496e-29
     0.411478  1.03521e-29
     0.412361  1.03545e-29
     0.413246  1.03572e-29
     0.414133  1.03602e-29
     0.415021  1.03636e-29
     0.415912  1.03675e-29
     0.416804  1.03720e-29
     0.417698  1.03774e-29
     0.418595  1.03835e-29
     0.419493  1.03907e-29
     0.420393  1.03988e-29
     0.421295  1.04081e-29
     0.422199  1.04193e-29
     0.423105  1.04316e-29
     0.424012  1.04445e-29
     0.424922  1.04588e-29
     0.425834  1.04745e-29
     0.426748  1.04914e-29
     0.427663  1.05097e-29
     0.428581  1.05296e-29
     0.429500  1.05508e-29
     0.430422  1.05730e-29
     0.431345  1.05963e-29
     0.432271  1.06208e-29
     0.433198  1.06463e-29
     0.434128  1.06724e-29
     0.435059  1.06996e-29
     0.435993  1.07277e-29
     0.436928  1.07562e-29
     0.437866  1.07852e-29
     0.438805  1.08145e-29
     0.439747  1.08440e-29
     0.440690  1.08735e-29
     0.441636  1.09030e-29
     0.442583  1.09324e-29
     0.443533  1.09606e-29
     0.444485  1.09906e-29
     0.445438  1.10222e-29
     0.446394  1.10498e-29
     0.447352  1.10754e-29
     0.448312  1.11007e-29
     0.449274  1.11248e-29
     0.450238  1.11468e-29
     0.451204  1.11675e-29
     0.452172  1.11875e-29
     0.453142  1.12061e-29
     0.454114  1.12230e-29
     0.455089  1.12384e-29
     0.456065  1.12520e-29
     0.457044  1.12641e-29
     0.458024  1.12745e-29
     0.459007  1.12834e-29
     0.459992  1.12907e-29
     0.460979  1.12964e-29
     0.461968  1.13007e-29
     0.462959  1.13036e-29
     0.463952  1.13053e-29
     0.464948  1.13058e-29
     0.465945  1.13052e-29
     0.466945  1.13039e-29
     0.467947  1.13018e-29
     0.468951  1.12990e-29
     0.469957  1.12957e-29
     0.470966  1.12922e-29
     0.471976  1.12888e-29
     0.472989  1.12853e-29
     0.474004  1.12821e-29
     0.475021  1.12793e-29
     0.476040  1.12770e-29
     0.477061  1.12760e-29
     0.478085  1.12769e-29
     0.479111  1.12781e-29
     0.480139  1.12797e-29
     0.481169  1.12829e-29
     0.482201  1.12879e-29
     0.483236  1.12945e-29
