*  HI bound-bound recombination spectrum.
* 
*   Frequency       Delta I_nu 
*     [GHz]      [J m^-2 s^-1 Hz^-1 sr^-1] 
    0.1000000  3.93266e-29
     0.100215  3.93984e-29
     0.100430  3.94698e-29
     0.100645  3.95410e-29
     0.100861  3.96120e-29
     0.101077  3.96826e-29
     0.101294  3.97531e-29
     0.101512  3.98235e-29
     0.101729  3.98937e-29
     0.101948  3.99642e-29
     0.102166  4.00348e-29
     0.102386  4.01055e-29
     0.102605  4.01765e-29
     0.102825  4.02478e-29
     0.103046  4.03196e-29
     0.103267  4.03918e-29
     0.103489  4.04647e-29
     0.103711  4.05383e-29
     0.103933  4.06120e-29
     0.104156  4.06866e-29
     0.104380  4.07621e-29
     0.104604  4.08381e-29
     0.104828  4.09148e-29
     0.105053  4.09924e-29
     0.105279  4.10708e-29
     0.105504  4.11492e-29
     0.105731  4.12279e-29
     0.105958  4.13073e-29
     0.106185  4.13873e-29
     0.106413  4.14672e-29
     0.106641  4.15471e-29
     0.106870  4.16275e-29
     0.107099  4.17077e-29
     0.107329  4.17875e-29
     0.107559  4.18675e-29
     0.107790  4.19470e-29
     0.108021  4.20263e-29
     0.108253  4.21057e-29
     0.108485  4.21841e-29
     0.108718  4.22620e-29
     0.108951  4.23398e-29
     0.109185  4.24168e-29
     0.109420  4.24932e-29
     0.109654  4.25693e-29
     0.109890  4.26450e-29
     0.110125  4.27199e-29
     0.110362  4.27943e-29
     0.110598  4.28689e-29
     0.110836  4.29430e-29
     0.111074  4.30167e-29
     0.111312  4.30904e-29
     0.111551  4.31645e-29
     0.111790  4.32385e-29
     0.112030  4.33127e-29
     0.112270  4.33874e-29
     0.112511  4.34625e-29
     0.112753  4.35382e-29
     0.112994  4.36147e-29
     0.113237  4.36918e-29
     0.113480  4.37697e-29
     0.113723  4.38488e-29
     0.113967  4.39285e-29
     0.114212  4.40090e-29
     0.114457  4.40908e-29
     0.114703  4.41734e-29
     0.114949  4.42568e-29
     0.115195  4.43411e-29
     0.115442  4.44257e-29
     0.115690  4.45109e-29
     0.115938  4.45968e-29
     0.116187  4.46833e-29
     0.116436  4.47698e-29
     0.116686  4.48561e-29
     0.116937  4.49428e-29
     0.117188  4.50294e-29
     0.117439  4.51158e-29
     0.117691  4.52019e-29
     0.117943  4.52871e-29
     0.118197  4.53718e-29
     0.118450  4.54561e-29
     0.118704  4.55392e-29
     0.118959  4.56218e-29
     0.119214  4.57042e-29
     0.119470  4.57854e-29
     0.119726  4.58658e-29
     0.119983  4.59457e-29
     0.120241  4.60249e-29
     0.120499  4.61036e-29
     0.120757  4.61817e-29
     0.121016  4.62591e-29
     0.121276  4.63367e-29
     0.121536  4.64142e-29
     0.121797  4.64911e-29
     0.122058  4.65684e-29
     0.122320  4.66462e-29
     0.122583  4.67245e-29
     0.122846  4.68029e-29
     0.123109  4.68818e-29
     0.123373  4.69618e-29
     0.123638  4.70430e-29
     0.123903  4.71250e-29
     0.124169  4.72077e-29
     0.124436  4.72915e-29
     0.124703  4.73766e-29
     0.124970  4.74631e-29
     0.125238  4.75506e-29
     0.125507  4.76388e-29
     0.125776  4.77281e-29
     0.126046  4.78184e-29
     0.126317  4.79093e-29
     0.126588  4.80009e-29
     0.126859  4.80934e-29
     0.127131  4.81863e-29
     0.127404  4.82793e-29
     0.127678  4.83722e-29
     0.127951  4.84654e-29
     0.128226  4.85580e-29
     0.128501  4.86504e-29
     0.128777  4.87430e-29
     0.129053  4.88342e-29
     0.129330  4.89248e-29
     0.129608  4.90155e-29
     0.129886  4.91045e-29
     0.130164  4.91926e-29
     0.130444  4.92802e-29
     0.130723  4.93672e-29
     0.131004  4.94528e-29
     0.131285  4.95372e-29
     0.131567  4.96212e-29
     0.131849  4.97049e-29
     0.132132  4.97879e-29
     0.132415  4.98699e-29
     0.132700  4.99514e-29
     0.132984  5.00330e-29
     0.133270  5.01148e-29
     0.133556  5.01961e-29
     0.133842  5.02776e-29
     0.134129  5.03597e-29
     0.134417  5.04420e-29
     0.134705  5.05252e-29
     0.134994  5.06093e-29
     0.135284  5.06942e-29
     0.135574  5.07798e-29
     0.135865  5.08666e-29
     0.136157  5.09547e-29
     0.136449  5.10438e-29
     0.136742  5.11342e-29
     0.137035  5.12260e-29
     0.137329  5.13188e-29
     0.137624  5.14127e-29
     0.137919  5.15077e-29
     0.138215  5.16037e-29
     0.138512  5.17009e-29
     0.138809  5.17989e-29
     0.139107  5.18971e-29
     0.139405  5.19959e-29
     0.139704  5.20951e-29
     0.140004  5.21942e-29
     0.140304  5.22937e-29
     0.140605  5.23929e-29
     0.140907  5.24917e-29
     0.141209  5.25904e-29
     0.141512  5.26885e-29
     0.141816  5.27857e-29
     0.142120  5.28825e-29
     0.142425  5.29784e-29
     0.142731  5.30732e-29
     0.143037  5.31673e-29
     0.143344  5.32609e-29
     0.143651  5.33535e-29
     0.143960  5.34449e-29
     0.144269  5.35356e-29
     0.144578  5.36254e-29
     0.144888  5.37145e-29
     0.145199  5.38035e-29
     0.145511  5.38916e-29
     0.145823  5.39788e-29
     0.146136  5.40664e-29
     0.146449  5.41538e-29
     0.146764  5.42409e-29
     0.147078  5.43279e-29
     0.147394  5.44152e-29
     0.147710  5.45028e-29
     0.148027  5.45906e-29
     0.148345  5.46790e-29
     0.148663  5.47683e-29
     0.148982  5.48584e-29
     0.149302  5.49494e-29
     0.149622  5.50411e-29
     0.149943  5.51339e-29
     0.150265  5.52279e-29
     0.150587  5.53233e-29
     0.150910  5.54198e-29
     0.151234  5.55171e-29
     0.151559  5.56161e-29
     0.151884  5.57164e-29
     0.152210  5.58172e-29
     0.152536  5.59194e-29
     0.152864  5.60228e-29
     0.153192  5.61267e-29
     0.153520  5.62316e-29
     0.153850  5.63372e-29
     0.154180  5.64432e-29
     0.154511  5.65497e-29
     0.154842  5.66564e-29
     0.155174  5.67631e-29
     0.155507  5.68699e-29
     0.155841  5.69767e-29
     0.156175  5.70830e-29
     0.156510  5.71886e-29
     0.156846  5.72939e-29
     0.157183  5.73984e-29
     0.157520  5.75016e-29
     0.157858  5.76044e-29
     0.158197  5.77065e-29
     0.158536  5.78072e-29
     0.158876  5.79065e-29
     0.159217  5.80047e-29
     0.159559  5.81019e-29
     0.159901  5.81979e-29
     0.160244  5.82926e-29
     0.160588  5.83861e-29
     0.160933  5.84789e-29
     0.161278  5.85712e-29
     0.161624  5.86626e-29
     0.161971  5.87528e-29
     0.162318  5.88432e-29
     0.162666  5.89332e-29
     0.163016  5.90227e-29
     0.163365  5.91130e-29
     0.163716  5.92034e-29
     0.164067  5.92940e-29
     0.164419  5.93866e-29
     0.164772  5.94796e-29
     0.165125  5.95733e-29
     0.165480  5.96693e-29
     0.165835  5.97669e-29
     0.166191  5.98659e-29
     0.166547  5.99665e-29
     0.166904  6.00690e-29
     0.167263  6.01738e-29
     0.167621  6.02805e-29
     0.167981  6.03887e-29
     0.168342  6.04987e-29
     0.168703  6.06107e-29
     0.169065  6.07243e-29
     0.169427  6.08391e-29
     0.169791  6.09548e-29
     0.170155  6.10715e-29
     0.170520  6.11893e-29
     0.170886  6.13075e-29
     0.171253  6.14251e-29
     0.171620  6.15432e-29
     0.171989  6.16613e-29
     0.172358  6.17784e-29
     0.172727  6.18944e-29
     0.173098  6.20099e-29
     0.173469  6.21245e-29
     0.173842  6.22369e-29
     0.174215  6.23482e-29
     0.174588  6.24584e-29
     0.174963  6.25665e-29
     0.175338  6.26731e-29
     0.175715  6.27780e-29
     0.176092  6.28806e-29
     0.176469  6.29824e-29
     0.176848  6.30827e-29
     0.177228  6.31809e-29
     0.177608  6.32778e-29
     0.177989  6.33739e-29
     0.178371  6.34691e-29
     0.178754  6.35627e-29
     0.179137  6.36561e-29
     0.179521  6.37496e-29
     0.179907  6.38424e-29
     0.180293  6.39353e-29
     0.180679  6.40290e-29
     0.181067  6.41235e-29
     0.181456  6.42184e-29
     0.181845  6.43146e-29
     0.182235  6.44126e-29
     0.182626  6.45114e-29
     0.183018  6.46124e-29
     0.183411  6.47160e-29
     0.183804  6.48207e-29
     0.184199  6.49277e-29
     0.184594  6.50373e-29
     0.184990  6.51488e-29
     0.185387  6.52626e-29
     0.185784  6.53790e-29
     0.186183  6.54976e-29
     0.186583  6.56173e-29
     0.186983  6.57389e-29
     0.187384  6.58630e-29
     0.187786  6.59873e-29
     0.188189  6.61126e-29
     0.188593  6.62395e-29
     0.188998  6.63664e-29
     0.189403  6.64940e-29
     0.189809  6.66219e-29
     0.190217  6.67486e-29
     0.190625  6.68755e-29
     0.191034  6.70020e-29
     0.191444  6.71264e-29
     0.191854  6.72500e-29
     0.192266  6.73726e-29
     0.192679  6.74935e-29
     0.193092  6.76131e-29
     0.193506  6.77307e-29
     0.193922  6.78463e-29
     0.194338  6.79604e-29
     0.194755  6.80728e-29
     0.195172  6.81832e-29
     0.195591  6.82917e-29
     0.196011  6.83988e-29
     0.196431  6.85041e-29
     0.196853  6.86073e-29
     0.197275  6.87101e-29
     0.197699  6.88121e-29
     0.198123  6.89122e-29
     0.198548  6.90116e-29
     0.198974  6.91111e-29
     0.199401  6.92104e-29
     0.199829  6.93090e-29
     0.200257  6.94078e-29
     0.200687  6.95075e-29
     0.201118  6.96076e-29
     0.201549  6.97088e-29
     0.201982  6.98110e-29
     0.202415  6.99140e-29
     0.202849  7.00195e-29
     0.203285  7.01270e-29
     0.203721  7.02357e-29
     0.204158  7.03467e-29
     0.204596  7.04597e-29
     0.205035  7.05749e-29
     0.205475  7.06927e-29
     0.205916  7.08129e-29
     0.206357  7.09352e-29
     0.206800  7.10594e-29
     0.207244  7.11860e-29
     0.207689  7.13146e-29
     0.208134  7.14448e-29
     0.208581  7.15765e-29
     0.209028  7.17098e-29
     0.209477  7.18447e-29
     0.209926  7.19803e-29
     0.210377  7.21162e-29
     0.210828  7.22524e-29
     0.211280  7.23888e-29
     0.211734  7.25252e-29
     0.212188  7.26613e-29
     0.212643  7.27971e-29
     0.213100  7.29315e-29
     0.213557  7.30646e-29
     0.214015  7.31974e-29
     0.214474  7.33286e-29
     0.214934  7.34581e-29
     0.215396  7.35863e-29
     0.215858  7.37123e-29
     0.216321  7.38368e-29
     0.216785  7.39598e-29
     0.217250  7.40798e-29
     0.217716  7.41985e-29
     0.218183  7.43164e-29
     0.218652  7.44321e-29
     0.219121  7.45455e-29
     0.219591  7.46577e-29
     0.220062  7.47690e-29
     0.220534  7.48782e-29
     0.221007  7.49858e-29
     0.221481  7.50931e-29
     0.221957  7.51995e-29
     0.222433  7.53049e-29
     0.222910  7.54098e-29
     0.223388  7.55145e-29
     0.223868  7.56194e-29
     0.224348  7.57247e-29
     0.224829  7.58301e-29
     0.225312  7.59362e-29
     0.225795  7.60439e-29
     0.226280  7.61530e-29
     0.226765  7.62631e-29
     0.227252  7.63748e-29
     0.227739  7.64889e-29
     0.228228  7.66053e-29
     0.228718  7.67238e-29
     0.229208  7.68448e-29
     0.229700  7.69689e-29
     0.230193  7.70954e-29
     0.230687  7.72239e-29
     0.231182  7.73558e-29
     0.231678  7.74899e-29
     0.232175  7.76261e-29
     0.232673  7.77655e-29
     0.233173  7.79064e-29
     0.233673  7.80490e-29
     0.234174  7.81947e-29
     0.234677  7.83414e-29
     0.235180  7.84886e-29
     0.235685  7.86368e-29
     0.236190  7.87862e-29
     0.236697  7.89357e-29
     0.237205  7.90851e-29
     0.237714  7.92348e-29
     0.238224  7.93838e-29
     0.238735  7.95318e-29
     0.239247  7.96791e-29
     0.239761  7.98248e-29
     0.240275  7.99689e-29
     0.240791  8.01121e-29
     0.241307  8.02526e-29
     0.241825  8.03910e-29
     0.242344  8.05282e-29
     0.242864  8.06627e-29
     0.243385  8.07946e-29
     0.243907  8.09245e-29
     0.244431  8.10518e-29
     0.244955  8.11763e-29
     0.245481  8.12986e-29
     0.246007  8.14191e-29
     0.246535  8.15369e-29
     0.247064  8.16521e-29
     0.247594  8.17656e-29
     0.248125  8.18772e-29
     0.248658  8.19871e-29
     0.249191  8.20958e-29
     0.249726  8.22033e-29
     0.250262  8.23100e-29
     0.250799  8.24165e-29
     0.251337  8.25225e-29
     0.251876  8.26281e-29
     0.252417  8.27344e-29
     0.252958  8.28427e-29
     0.253501  8.29513e-29
     0.254045  8.30609e-29
     0.254590  8.31733e-29
     0.255136  8.32878e-29
     0.255684  8.34047e-29
     0.256232  8.35249e-29
     0.256782  8.36478e-29
     0.257333  8.37743e-29
     0.257885  8.39048e-29
     0.258438  8.40385e-29
     0.258993  8.41760e-29
     0.259549  8.43178e-29
     0.260106  8.44631e-29
     0.260664  8.46119e-29
     0.261223  8.47643e-29
     0.261783  8.49200e-29
     0.262345  8.50793e-29
     0.262908  8.52415e-29
     0.263472  8.54056e-29
     0.264037  8.55714e-29
     0.264604  8.57393e-29
     0.265172  8.59089e-29
     0.265741  8.60781e-29
     0.266311  8.62479e-29
     0.266882  8.64187e-29
     0.267455  8.65878e-29
     0.268029  8.67562e-29
     0.268604  8.69236e-29
     0.269180  8.70883e-29
     0.269758  8.72515e-29
     0.270336  8.74120e-29
     0.270916  8.75684e-29
     0.271498  8.77229e-29
     0.272080  8.78740e-29
     0.272664  8.80201e-29
     0.273249  8.81636e-29
     0.273835  8.83037e-29
     0.274423  8.84394e-29
     0.275012  8.85706e-29
     0.275602  8.86985e-29
     0.276193  8.88230e-29
     0.276786  8.89432e-29
     0.277380  8.90603e-29
     0.277975  8.91745e-29
     0.278571  8.92853e-29
     0.279169  8.93940e-29
     0.279768  8.95011e-29
     0.280368  8.96066e-29
     0.280970  8.97101e-29
     0.281573  8.98131e-29
     0.282177  8.99165e-29
     0.282782  9.00196e-29
     0.283389  9.01241e-29
     0.283997  9.02302e-29
     0.284606  9.03367e-29
     0.285217  9.04465e-29
     0.285829  9.05601e-29
     0.286442  9.06763e-29
     0.287057  9.07966e-29
     0.287673  9.09209e-29
     0.288290  9.10493e-29
     0.288908  9.11829e-29
     0.289528  9.13214e-29
     0.290150  9.14644e-29
     0.290772  9.16126e-29
     0.291396  9.17660e-29
     0.292021  9.19242e-29
     0.292648  9.20867e-29
     0.293276  9.22537e-29
     0.293905  9.24249e-29
     0.294536  9.25998e-29
     0.295167  9.27775e-29
     0.295801  9.29579e-29
     0.296435  9.31414e-29
     0.297071  9.33265e-29
     0.297709  9.35127e-29
     0.298348  9.36994e-29
     0.298988  9.38859e-29
     0.299629  9.40720e-29
     0.300272  9.42579e-29
     0.300916  9.44430e-29
     0.301562  9.46252e-29
     0.302209  9.48047e-29
     0.302858  9.49827e-29
     0.303507  9.51576e-29
     0.304159  9.53290e-29
     0.304811  9.54970e-29
     0.305465  9.56611e-29
     0.306121  9.58218e-29
     0.306777  9.59788e-29
     0.307436  9.61311e-29
     0.308095  9.62797e-29
     0.308756  9.64252e-29
     0.309419  9.65671e-29
     0.310083  9.67045e-29
     0.310748  9.68384e-29
     0.311415  9.69702e-29
     0.312083  9.70980e-29
     0.312753  9.72225e-29
     0.313424  9.73451e-29
     0.314096  9.74653e-29
     0.314770  9.75837e-29
     0.315445  9.77009e-29
     0.316122  9.78163e-29
     0.316800  9.79311e-29
     0.317480  9.80459e-29
     0.318161  9.81596e-29
     0.318844  9.82736e-29
     0.319528  9.83889e-29
     0.320214  9.85051e-29
     0.320901  9.86225e-29
     0.321589  9.87414e-29
     0.322279  9.88623e-29
     0.322971  9.89860e-29
     0.323664  9.91126e-29
     0.324358  9.92422e-29
     0.325054  9.93748e-29
     0.325752  9.95110e-29
     0.326451  9.96513e-29
     0.327151  9.97958e-29
     0.327853  9.99441e-29
     0.328556  1.00097e-28
     0.329261  1.00254e-28
     0.329968  1.00414e-28
     0.330676  1.00579e-28
     0.331385  1.00749e-28
     0.332096  1.00925e-28
     0.332809  1.01103e-28
     0.333523  1.01282e-28
     0.334239  1.01467e-28
     0.334956  1.01655e-28
     0.335674  1.01845e-28
     0.336395  1.02037e-28
     0.337116  1.02231e-28
     0.337840  1.02426e-28
     0.338565  1.02623e-28
     0.339291  1.02820e-28
     0.340019  1.03017e-28
     0.340749  1.03214e-28
     0.341480  1.03411e-28
     0.342212  1.03606e-28
     0.342947  1.03800e-28
     0.343682  1.03992e-28
     0.344420  1.04183e-28
     0.345159  1.04372e-28
     0.345899  1.04558e-28
     0.346642  1.04741e-28
     0.347385  1.04922e-28
     0.348131  1.05099e-28
     0.348878  1.05273e-28
     0.349626  1.05444e-28
     0.350376  1.05611e-28
     0.351128  1.05774e-28
     0.351882  1.05935e-28
     0.352636  1.06091e-28
     0.353393  1.06243e-28
     0.354151  1.06391e-28
     0.354911  1.06536e-28
     0.355673  1.06678e-28
     0.356436  1.06815e-28
     0.357201  1.06949e-28
     0.357967  1.07080e-28
     0.358735  1.07207e-28
     0.359505  1.07332e-28
     0.360276  1.07454e-28
     0.361049  1.07574e-28
     0.361824  1.07691e-28
     0.362600  1.07807e-28
     0.363378  1.07922e-28
     0.364158  1.08037e-28
     0.364939  1.08151e-28
     0.365722  1.08265e-28
     0.366507  1.08381e-28
     0.367293  1.08498e-28
     0.368081  1.08617e-28
     0.368871  1.08738e-28
     0.369663  1.08863e-28
     0.370456  1.08993e-28
     0.371251  1.09126e-28
     0.372047  1.09263e-28
     0.372845  1.09406e-28
     0.373645  1.09554e-28
     0.374447  1.09708e-28
     0.375251  1.09869e-28
     0.376056  1.10035e-28
     0.376863  1.10208e-28
     0.377671  1.10388e-28
     0.378481  1.10573e-28
     0.379294  1.10764e-28
     0.380107  1.10960e-28
     0.380923  1.11163e-28
     0.381740  1.11370e-28
     0.382559  1.11581e-28
     0.383380  1.11796e-28
     0.384203  1.12015e-28
     0.385027  1.12237e-28
     0.385853  1.12461e-28
     0.386681  1.12687e-28
     0.387511  1.12914e-28
     0.388342  1.13143e-28
     0.389175  1.13369e-28
     0.390010  1.13596e-28
     0.390847  1.13823e-28
     0.391686  1.14047e-28
     0.392526  1.14270e-28
     0.393368  1.14490e-28
     0.394213  1.14706e-28
     0.395058  1.14920e-28
     0.395906  1.15129e-28
     0.396755  1.15333e-28
     0.397607  1.15534e-28
     0.398460  1.15730e-28
     0.399315  1.15920e-28
     0.400171  1.16105e-28
     0.401030  1.16285e-28
     0.401891  1.16460e-28
     0.402753  1.16628e-28
     0.403617  1.16791e-28
     0.404483  1.16950e-28
     0.405351  1.17102e-28
     0.406221  1.17249e-28
     0.407092  1.17390e-28
     0.407966  1.17526e-28
     0.408841  1.17658e-28
     0.409718  1.17785e-28
     0.410597  1.17907e-28
     0.411478  1.18026e-28
     0.412361  1.18142e-28
     0.413246  1.18255e-28
     0.414133  1.18365e-28
     0.415021  1.18473e-28
     0.415912  1.18579e-28
     0.416804  1.18685e-28
     0.417698  1.18791e-28
     0.418595  1.18897e-28
     0.419493  1.19005e-28
     0.420393  1.19115e-28
     0.421295  1.19227e-28
     0.422199  1.19343e-28
     0.423105  1.19462e-28
     0.424012  1.19587e-28
     0.424922  1.19718e-28
     0.425834  1.19854e-28
     0.426748  1.19996e-28
     0.427663  1.20146e-28
     0.428581  1.20304e-28
     0.429500  1.20469e-28
     0.430422  1.20642e-28
     0.431345  1.20824e-28
     0.432271  1.21015e-28
     0.433198  1.21214e-28
     0.434128  1.21422e-28
     0.435059  1.21638e-28
     0.435993  1.21862e-28
     0.436928  1.22093e-28
     0.437866  1.22331e-28
     0.438805  1.22575e-28
     0.439747  1.22825e-28
     0.440690  1.23080e-28
     0.441636  1.23339e-28
     0.442583  1.23602e-28
     0.443533  1.23866e-28
     0.444485  1.24135e-28
     0.445438  1.24403e-28
     0.446394  1.24669e-28
     0.447352  1.24937e-28
     0.448312  1.25203e-28
     0.449274  1.25465e-28
     0.450238  1.25724e-28
     0.451204  1.25980e-28
     0.452172  1.26232e-28
     0.453142  1.26477e-28
     0.454114  1.26718e-28
     0.455089  1.26952e-28
     0.456065  1.27180e-28
     0.457044  1.27400e-28
     0.458024  1.27612e-28
     0.459007  1.27817e-28
     0.459992  1.28015e-28
     0.460979  1.28204e-28
     0.461968  1.28384e-28
     0.462959  1.28557e-28
     0.463952  1.28722e-28
     0.464948  1.28877e-28
     0.465945  1.29026e-28
     0.466945  1.29167e-28
     0.467947  1.29301e-28
     0.468951  1.29427e-28
     0.469957  1.29547e-28
     0.470966  1.29661e-28
     0.471976  1.29769e-28
     0.472989  1.29873e-28
     0.474004  1.29973e-28
     0.475021  1.30069e-28
     0.476040  1.30163e-28
     0.477061  1.30255e-28
     0.478085  1.30346e-28
     0.479111  1.30437e-28
     0.480139  1.30529e-28
     0.481169  1.30622e-28
     0.482201  1.30718e-28
     0.483236  1.30818e-28
